"Angle of incidence, deg.","P-polarized","S-polarized","Non-polarized"
0,0.08865676936660065,0.08865676936660065,0.08865676936660065
0.1,0.08865647708952532,0.08865706164406402,0.08865676936679467
0.2,0.08865560025728281,0.08865793848212719,0.088656769369705
0.30000000000000004,0.0886541388668234,0.08865939989780987,0.08865676938231663
0.4,0.08865209291306451,0.08866144591947867,0.0886567694162716
0.5,0.08864946238889138,0.08866407658684787,0.08865676948786963
0.6,0.08864624728515755,0.08866729195098108,0.08865676961806931
0.7,0.08864244759068582,0.08867109207429213,0.08865676983248898
0.7999999999999999,0.08863806329226914,0.08867547703054743,0.08865677016140829
0.8999999999999999,0.08863309437467222,0.08868044690486802,0.08865677063977012
0.9999999999999999,0.08862754082063273,0.08868600179373175,0.08865677130718225
1.0999999999999999,0.08862140261086296,0.08869214180497689,0.08865677220791993
1.2,0.08861467972405193,0.08869886705780475,0.08865677339092834
1.3,0.08860737213686687,0.0887061776827835,0.08865677490982518
1.4000000000000001,0.08859947982395636,0.0887140738218519,0.08865677682290413
1.5000000000000002,0.08859100275795166,0.08872255562832354,0.08865677919313761
1.6000000000000003,0.08858194090947043,0.08873162326689178,0.0886567820881811
1.7000000000000004,0.08857229424711861,0.08874127691363416,0.08865678558037639
1.8000000000000005,0.08856206273749422,0.08875151675601797,0.08865678974675609
1.9000000000000006,0.08855124634519014,0.08876234299290571,0.08865679466904793
2.0000000000000004,0.0885398450327976,0.08877375583456111,0.08865680043367935
2.1000000000000005,0.0885278587609099,0.08878575550265538,0.08865680713178264
2.2000000000000006,0.0885152874881262,0.08879834223027361,0.0886568148591999
2.3000000000000007,0.08850213117105538,0.08881151626192227,0.08865682371648882
2.400000000000001,0.08848838976432066,0.08882527785353579,0.08865683380892822
2.500000000000001,0.08847406322056339,0.0888396272724849,0.08865684524652415
2.600000000000001,0.08845915149044836,0.08885456479758393,0.08865685814401614
2.700000000000001,0.08844365452266804,0.08887009071909974,0.0886568726208839
2.800000000000001,0.08842757226394797,0.08888620533876006,0.08865688880135401
2.9000000000000012,0.08841090465905171,0.08890290896976255,0.08865690681440713
3.0000000000000013,0.08839365165078676,0.08892020193678393,0.08865692679378534
3.1000000000000014,0.08837581318000941,0.0889380845759903,0.08865694887799985
3.2000000000000015,0.08835738918563121,0.08895655723504645,0.08865697321033883
3.3000000000000016,0.08833837960462482,0.08897562027312671,0.08865699993887577
3.4000000000000017,0.08831878437203007,0.08899527406092551,0.08865702921647779
3.5000000000000018,0.08829860342096081,0.08901551898066826,0.08865706120081454
3.600000000000002,0.088277836682611,0.08903635542612331,0.08865709605436715
3.700000000000002,0.08825648408626213,0.08905778380261294,0.08865713394443753
3.800000000000002,0.08823454555928999,0.08907980452702624,0.08865717504315812
3.900000000000002,0.08821202102717203,0.08910241802783087,0.08865721952750144
4.000000000000002,0.0881889104134947,0.0891256247450865,0.0886572675792906
4.100000000000001,0.08816521363996141,0.08914942513045734,0.08865731938520938
4.200000000000001,0.08814093062640026,0.08917381964722616,0.08865737513681321
4.300000000000001,0.08811606129077215,0.08919880877030761,0.08865743503053988
4.4,0.08809060554917932,0.08922439298626286,0.0886574992677211
4.5,0.0880645633158736,0.089250572793314,0.0886575680545938
4.6,0.08803793450326551,0.08927734870135853,0.08865764160231202
4.699999999999999,0.08801071902193278,0.0893047212319855,0.08865772012695913
4.799999999999999,0.08798291678063021,0.08933269091848976,0.08865780384955999
4.899999999999999,0.0879545276862985,0.0893612583058894,0.08865789299609395
4.999999999999998,0.0879255516440741,0.08939042395094084,0.08865798779750747
5.099999999999998,0.08789598855729917,0.08942018842215603,0.0886580884897276
5.1999999999999975,0.0878658383275315,0.08945055229981931,0.08865819531367541
5.299999999999997,0.08783510085455491,0.08948151617600474,0.08865830851527982
5.399999999999997,0.08780377603638992,0.08951308065459383,0.08865842834549187
5.4999999999999964,0.0877718637693041,0.08954524635129339,0.08865855506029874
5.599999999999996,0.08773936394782332,0.08957801389365458,0.08865868892073894
5.699999999999996,0.08770627646474301,0.08961138392109061,0.08865883019291682
5.799999999999995,0.08767260121113961,0.08964535708489674,0.08865897914801818
5.899999999999995,0.08763833807638197,0.08967993404826963,0.0886591360623258
5.999999999999995,0.08760348694814347,0.08971511548632646,0.08865930121723498
6.099999999999994,0.08756804771241429,0.08975090208612616,0.08865947489927023
6.199999999999994,0.0875320202535133,0.08978729454668911,0.0886596574001012
6.299999999999994,0.0874954044541013,0.08982429357901843,0.08865984901655986
6.399999999999993,0.08745820019519328,0.08986189990612127,0.08866005005065727
6.499999999999993,0.08742040735617192,0.08990011426303023,0.08866026080960107
6.5999999999999925,0.08738202581480055,0.08993893739682543,0.088660481605813
6.699999999999992,0.08734305544723711,0.08997837006665703,0.08866071275694706
6.799999999999992,0.0873034961280476,0.09001841304376758,0.08866095458590759
6.8999999999999915,0.08726334773022033,0.09005906711151554,0.08866120742086794
6.999999999999991,0.08722261012518029,0.09010033306539819,0.08866147159528924
7.099999999999991,0.08718128318280342,0.09014221171307592,0.08866174744793967
7.19999999999999,0.08713936677143166,0.0901847038743962,0.08866203532291393
7.29999999999999,0.08709686075788796,0.09022781038141783,0.08866233556965289
7.39999999999999,0.08705376500749132,0.0902715320784365,0.0886626485429639
7.499999999999989,0.08701007938407286,0.09031586982200947,0.08866297460304116
7.599999999999989,0.08696580374999113,0.09036082448098137,0.08866331411548625
7.699999999999989,0.0869209379661483,0.09040639693651045,0.08866366745132938
7.799999999999988,0.08687548189200686,0.09045258808209454,0.0886640349870507
7.899999999999988,0.08682943538560577,0.09049939882359818,0.08866441710460198
7.999999999999988,0.08678279830357759,0.09054683007927952,0.08866481419142855
8.099999999999987,0.08673557050116527,0.090594882779818,0.08866522664049165
8.199999999999987,0.08668775183224006,0.09064355786834205,0.08866565485029106
8.299999999999986,0.08663934214931877,0.09069285630045722,0.088666099224888
8.399999999999986,0.0865903413035819,0.09074277904427536,0.08866656017392863
8.499999999999986,0.08654074914489164,0.09079332708044296,0.0886670381126673
8.599999999999985,0.08649056552181071,0.09084450140217099,0.08866753346199086
8.699999999999985,0.0864397902816209,0.0908963030152643,0.0886680466484426
8.799999999999985,0.08638842327034199,0.09094873293815216,0.08866857810424708
8.899999999999984,0.08633646433275133,0.09100179220191852,0.08866912826733492
8.999999999999984,0.08628391331240352,0.09105548185033281,0.08866969758136817
9.099999999999984,0.08623077005164984,0.09110980293988143,0.08867028649576564
9.199999999999983,0.08617703439165902,0.09116475653979966,0.08867089546572934
9.299999999999983,0.08612270617243735,0.09122034373210308,0.08867152495227021
9.399999999999983,0.08606778523284961,0.09127656561162052,0.08867217542223507
9.499999999999982,0.08601227141064023,0.09133342328602669,0.08867284734833346
9.599999999999982,0.08595616454245442,0.09139091787587547,0.08867354120916494
9.699999999999982,0.08589946446385975,0.09144905051463352,0.08867425748924664
9.799999999999981,0.08584217100936893,0.0915078223487141,0.08867499667904152
9.89999999999998,0.08578428401246113,0.09156723453751169,0.08867575927498642
9.99999999999998,0.08572580330560482,0.09162728825343697,0.08867654577952089
10.09999999999998,0.0856667287202814,0.09168798468195119,0.08867735670111629
10.19999999999998,0.08560706008700736,0.0917493250216027,0.08867819255430504
10.29999999999998,0.08554679723535832,0.09181131048406245,0.0886790538597104
10.399999999999979,0.08548593999399334,0.09187394229416013,0.08867994114407673
10.499999999999979,0.0854244881906781,0.09193722168992143,0.08868085494029976
10.599999999999978,0.08536244165231036,0.09200114992260505,0.0886817957874577
10.699999999999978,0.08529980020494403,0.0920657282567401,0.08868276423084206
10.799999999999978,0.08523656367381509,0.09213095797016416,0.08868376082198962
10.899999999999977,0.08517273188336623,0.0921968403540617,0.08868478611871397
10.999999999999977,0.08510830465727358,0.09226337671300291,0.08868584068513824
11.099999999999977,0.08504328181847212,0.09233056836498277,0.08868692509172744
11.199999999999976,0.08497766318918273,0.0923984166414606,0.08868803991532168
11.299999999999976,0.08491144859093885,0.09246692288740013,0.0886891857391695
11.399999999999975,0.08484463784461362,0.0925360884613102,0.08869036315296192
11.499999999999975,0.08477723077044731,0.09260591473528504,0.08869157275286618
11.599999999999975,0.08470922718807578,0.0926764030950459,0.08869281514156084
11.699999999999974,0.08464062691655826,0.0927475549399826,0.08869409092827044
11.799999999999974,0.08457142977440618,0.0928193716831954,0.08869540072880079
11.899999999999974,0.08450163557961211,0.09289185475153794,0.08869674516557502
11.999999999999973,0.08443124414967906,0.09296500558565979,0.08869812486766943
12.099999999999973,0.08436025530165055,0.09303882564004959,0.08869954047085007
12.199999999999973,0.08428866885214026,0.09311331638307932,0.08870099261760979
12.299999999999972,0.08421648461736275,0.09318847929704835,0.08870248195720555
12.399999999999972,0.0841437024131645,0.09326431587822737,0.08870400914569593
12.499999999999972,0.08407032205505485,0.0933408276369045,0.08870557484597968
12.599999999999971,0.0839963433582379,0.09341801609742978,0.08870717972783385
12.69999999999997,0.08392176613764435,0.09349588279826151,0.08870882446795293
12.79999999999997,0.08384659020796403,0.09357442929201247,0.08871050974998826
12.89999999999997,0.08377081538367893,0.0936536571454965,0.08871223626458771
12.99999999999997,0.08369444147909594,0.09373356793977608,0.08871400470943601
13.09999999999997,0.08361746830838108,0.09381416327020943,0.08871581578929526
13.199999999999969,0.083539895685593,0.09389544474649875,0.08871767021604587
13.299999999999969,0.08346172342471807,0.09397741399273887,0.08871956870872846
13.399999999999968,0.08338295133970451,0.09406007264746581,0.08872151199358516
13.499999999999968,0.08330357924449847,0.09414342236370654,0.0887235008041025
13.599999999999968,0.08322360695307925,0.09422746480902845,0.08872553588105385
13.699999999999967,0.08314303427949547,0.09431220166558958,0.08872761797254253
13.799999999999967,0.08306186103790233,0.09439763463018958,0.08872974783404596
13.899999999999967,0.08298008704259757,0.09448376541432058,0.08873192622845907
13.999999999999966,0.08289771210805987,0.09457059574421904,0.08873415392613945
14.099999999999966,0.08281473604898641,0.09465812736091739,0.0887364317049519
14.199999999999966,0.08273115868033135,0.0947463620202969,0.08873876035031412
14.299999999999965,0.08264697981734449,0.09483530149314029,0.08874114065524238
14.399999999999965,0.08256219927561065,0.09492494756518564,0.08874357342039815
14.499999999999964,0.08247681687108982,0.09501530203717944,0.08874605945413463
14.599999999999964,0.08239083242015662,0.09510636672493157,0.08874859957254409
14.699999999999964,0.08230424573964189,0.09519814345936985,0.08875119459950587
14.799999999999963,0.08221705664687315,0.09529063408659515,0.08875384536673414
14.899999999999963,0.08212926495971654,0.09538384046793744,0.08875655271382699
14.999999999999963,0.08204087049661923,0.09547776448001132,0.08875931748831528
15.099999999999962,0.08195187307665179,0.09557240801477344,0.08876214054571262
15.199999999999962,0.08186227251955135,0.09566777297957885,0.0887650227495651
15.299999999999962,0.08177206864576514,0.0957638612972392,0.08876796497150216
15.399999999999961,0.0816812612764953,0.09586067490608018,0.08877096809128773
15.499999999999961,0.0815898502337425,0.09595821576000071,0.08877403299687162
15.59999999999996,0.08149783534035206,0.09605648582853131,0.08877716058444168
15.69999999999996,0.0814052164200593,0.096155487096894,0.08878035175847665
15.79999999999996,0.08131199329753572,0.09625522156606195,0.08878360743179883
15.89999999999996,0.08121816579843588,0.09635569125282024,0.08878692852562806
15.99999999999996,0.08112373374944465,0.0964568981898264,0.08879031596963552
16.09999999999996,0.08102869697832527,0.096558844425672,0.08879377070199863
16.19999999999996,0.08093305531396738,0.09666153202494487,0.08879729366945613
16.29999999999996,0.08083680858643645,0.0967649630682909,0.08880088582736367
16.399999999999963,0.08073995662702292,0.09686913965247723,0.08880454813975008
16.499999999999964,0.0806424992682925,0.09697406389045553,0.08880828157937401
16.599999999999966,0.0805444363441366,0.09707973791142617,0.08881208712778138
16.699999999999967,0.08044576768982406,0.09718616386090205,0.08881596577536305
16.79999999999997,0.08034649314205261,0.09729334390077388,0.08881991852141324
16.89999999999997,0.08024661253900103,0.09740128020937537,0.0888239463741882
16.99999999999997,0.08014612572038288,0.09750997498154929,0.08882805035096608
17.099999999999973,0.08004503252749946,0.09761943042871338,0.08883223147810643
17.199999999999974,0.07994333280329438,0.09772964877892791,0.08883649079111114
17.299999999999976,0.07984102639240831,0.09784063227696248,0.0888408293346854
17.399999999999977,0.07973811314123429,0.09795238318436443,0.08884524816279936
17.49999999999998,0.07963459289797413,0.09806490377952672,0.08884974833875042
17.59999999999998,0.07953046551269481,0.09817819635775736,0.08885433093522609
17.69999999999998,0.07942573083738615,0.09829226323134849,0.08885899703436731
17.799999999999983,0.07932038872601833,0.09840710672964678,0.08886374772783256
17.899999999999984,0.07921443903460117,0.09852272919912336,0.08886858411686227
17.999999999999986,0.07910788162124265,0.09863913300344561,0.08887350731234413
18.099999999999987,0.07900071634620993,0.09875632052354771,0.08887851843487882
18.19999999999999,0.07889294307198898,0.098874294157704,0.08888361861484649
18.29999999999999,0.0787845616633464,0.09899305632160026,0.08888880899247333
18.39999999999999,0.07867557198739177,0.09911260944840763,0.0888940907178997
18.499999999999993,0.07856597391363945,0.09923295598885655,0.08889946495124801
18.599999999999994,0.0784557673140728,0.09935409841131013,0.08890493286269147
18.699999999999996,0.07834495206320793,0.09947603920183962,0.08891049563252378
18.799999999999997,0.07823352803815872,0.09959878086429953,0.08891615445122913
18.9,0.07812149511870224,0.09972232592040307,0.08892191051955266
19,0.07800885318734492,0.09984667690979945,0.0889277650485722
19.1,0.07789560212939006,0.09997183639014988,0.08893371925976998
19.200000000000003,0.07778174183300494,0.1000978069372058,0.08893977438510536
19.300000000000004,0.07766727218928983,0.1002245911448864,0.08894593166708811
19.400000000000006,0.07755219309234719,0.1003521916253576,0.0889521923588524
19.500000000000007,0.07743650443935156,0.10048061100911107,0.08895855772423131
19.60000000000001,0.07732020613062053,0.10060985194504403,0.08896502903783228
19.70000000000001,0.07720329806968623,0.10073991710053952,0.08897160758511288
19.80000000000001,0.07708578016336812,0.10087080916154717,0.08897829466245764
19.900000000000013,0.07696765232184545,0.10100253083266497,0.0889850915772552
20.000000000000014,0.07684891445873224,0.1011350848372209,0.08899199964797658
20.100000000000016,0.07672956649115112,0.10126847391735573,0.08899902020425343
20.200000000000017,0.07660960833980998,0.10140270083410605,0.08900615458695801
20.30000000000002,0.07648903992907773,0.10153776836748803,0.08901340414828288
20.40000000000002,0.07636786118706185,0.10167367931658215,0.089020770251822
20.50000000000002,0.07624607204568684,0.10181043649961723,0.08902825427265204
20.600000000000023,0.07612367244077309,0.1019480427540568,0.08903585759741495
20.700000000000024,0.07600066231211665,0.10208650093668466,0.08904358162440065
20.800000000000026,0.07587704160357021,0.10222581392369204,0.08905142776363112
20.900000000000027,0.07575281026312505,0.10236598461076403,0.08905939743694455
21.00000000000003,0.07562796824299305,0.10250701591316844,0.08906749207808073
21.10000000000003,0.0755025154996908,0.10264891076584334,0.08907571313276708
21.20000000000003,0.07537645199412385,0.10279167212348687,0.08908406205880537
21.300000000000033,0.07524977769167165,0.10293530296064661,0.08909254032615913
21.400000000000034,0.07512249256227431,0.10307980627180982,0.08910114941704206
21.500000000000036,0.07499459658051992,0.1032251850714943,0.08910989082600711
21.600000000000037,0.07486608972573239,0.10337144239433993,0.08911876606003616
21.70000000000004,0.0747369719820606,0.10351858129520088,0.08912777663863074
21.80000000000004,0.0746072433385691,0.10366660484923827,0.08913692409390368
21.90000000000004,0.0744769037893284,0.10381551615201358,0.08914620997067099
22.000000000000043,0.0743459533335078,0.10396531831958261,0.0891556358265452
22.100000000000044,0.07421439197546832,0.10411601448858973,0.08916520323202903
22.200000000000045,0.07408221972485667,0.10426760781636377,0.08917491377061021
22.300000000000047,0.07394943659670068,0.10442010148101348,0.08918476903885708
22.40000000000005,0.0738160426115053,0.10457349868152398,0.08919477064651464
22.50000000000005,0.07368203779535021,0.10472780263785401,0.08920492021660212
22.60000000000005,0.07354742217998785,0.10488301659103395,0.0892152193855109
22.700000000000053,0.07341219580294282,0.10503914380326373,0.08922566980310329
22.800000000000054,0.07327635870761272,0.10519618755801222,0.08923627313281246
22.900000000000055,0.0731399109433696,0.10535415116011694,0.08924703105174327
23.000000000000057,0.07300285256566247,0.10551303793588424,0.08925794525077335
23.10000000000006,0.07286518363612134,0.10567285123319055,0.08926901743465594
23.20000000000006,0.07272690422266218,0.10583359442158395,0.08928024932212306
23.30000000000006,0.07258801439959296,0.10599527089238636,0.08929164264598966
23.400000000000063,0.07244851424772115,0.10615788405879678,0.08930319915325896
23.500000000000064,0.07230840385446159,0.10632143735599488,0.08931492060522823
23.600000000000065,0.07216768331394699,0.10648593424124507,0.08932680877759602
23.700000000000067,0.07202635272713775,0.10665137819400212,0.08933886546056993
23.800000000000068,0.07188441220193491,0.10681777271601609,0.08935109245897549
23.90000000000007,0.07174186185329286,0.10698512133143917,0.089363491592366
24.00000000000007,0.07159870180333383,0.10715342758693253,0.08937606469513318
24.100000000000072,0.07145493218146384,0.10732269505177434,0.0893888136166191
24.200000000000074,0.0713105531244897,0.10749292731796746,0.08940174022122857
24.300000000000075,0.07116556477673693,0.10766412800034936,0.08941484638854313
24.400000000000077,0.07101996729016982,0.1078363007367015,0.08942813401343566
24.500000000000078,0.07087376082451172,0.10800944918785962,0.08944160500618567
24.60000000000008,0.07072694554736782,0.10818357703782554,0.08945526129259668
24.70000000000008,0.07057952163434804,0.10835868799387845,0.08946910481411324
24.800000000000082,0.07043148926919235,0.10853478578668746,0.0894831375279399
24.900000000000084,0.07028284864389689,0.10871187417042556,0.08949736140716122
25.000000000000085,0.07013359995884116,0.10888995692288286,0.08951177844086201
25.100000000000087,0.06998374342291741,0.10906903784558213,0.08952639063424978
25.200000000000088,0.06983327925366087,0.10924912076389315,0.08954120000877701
25.30000000000009,0.0696822076773816,0.10943020952714981,0.08955620860226571
25.40000000000009,0.06953052892929747,0.10961230800876662,0.08957141846903205
25.500000000000092,0.06937824325366919,0.1097954201063565,0.08958683168001284
25.600000000000094,0.06922535090393614,0.10997954974184841,0.08960245032289227
25.700000000000095,0.06907185214285402,0.11016470086160768,0.08961827650223085
